Machine Module,N9343C,CN0605A298
MCU Version,A.06.27
DSP Version,A.05.02.02 SA
FPGA Version,A.02.80
04:26:50 07.11.2020
Y Axis Scale,LOG
Y Axis Unit,dBm
Impedance,50
Number of Points,461
Sweep Time(s),1.005100,MAN
Start Frequency,+0.000000000e+00
Stop Frequency,+1.000000000e+08
Frequency Offset,+0.000000000e+00
Average Type,Log Pwr
RBW,+1.000000000e+06,MAN
VBW,+1.000000000e+06,AUTO
Sweep Type,Continuous
Sweep Mode,Sweep
Speed,Fast
PreAmp State,OFF
Ref Level,-5.000000000e+01
Attenuation,0,MAN
Ref Level Offset,+0.000000000e+00
X Axis Units,Hz
HiSensitive,OFF
Trigger Source,FreeRun
Trigger Level,+0.000000000e+00
Trigger Slope,RISE
Trigger Delay,+0.000000000e+00,OFF
Gate Sweep,OFF
Gate View,OFF
Gate Delay,+2.280000000e-03
Gate Length,+8.400000000e-04
Gate Source,External
Burst Level,-2.000000000e+01
Burst Trigger Slope,Rise
Timer Period,+3.120000000e-03
Timer Offset,+0.000000000e+00
Sync Source,Off
Apply Corrections,OFF
Antenna Unit,OFF
Correction1,Off
Correction2,Off
Correction3,Off
Correction4,Off
Marker Information
Marker,Trace,Type,X Axis,Amplitude
M1,1,Frequency,5.00 MHz,-75.63 dBm
M2,1,Frequency,10.00 MHz,-73.40 dBm
M3,1,Frequency,20.00 MHz,-74.78 dBm
M4,1,Frequency,30.00 MHz,-75.21 dBm
M5,1,Frequency,40.00 MHz,-75.93 dBm
M6,1,Frequency,50.00 MHz,-78.18 dBm
CISPR Filter,Normal RBW,Dwell Time(s),0.500000,AUTO
Trace Math,Off
Trace Math By,Log Power
Trace Variable A,Trace1
Trace Variable B,Trace2
Trace Variable C,Trace3
Trace Name,Trace1,
Trace Count,20,
Trace Type,Clear Write,
Trace Detector,Average,
Trace Data
+0.000000000e+00,-1.119281197e+01,
+2.173913043e+05,-2.650984192e+01,
+4.347826087e+05,-2.917193031e+01,
+6.521739130e+05,-3.220686340e+01,
+8.695652174e+05,-3.628450394e+01,
+1.086956522e+06,-4.145601654e+01,
+1.304347826e+06,-4.772336197e+01,
+1.521739130e+06,-5.510044098e+01,
+1.739130435e+06,-6.365229416e+01,
+1.956521739e+06,-7.082298279e+01,
+2.173913043e+06,-7.384956360e+01,
+2.391304348e+06,-7.512882996e+01,
+2.608695652e+06,-7.565715027e+01,
+2.826086957e+06,-7.572293091e+01,
+3.043478261e+06,-7.600052643e+01,
+3.260869565e+06,-7.626668549e+01,
+3.478260870e+06,-7.600396729e+01,
+3.695652174e+06,-7.611251068e+01,
+3.913043478e+06,-7.606259918e+01,
+4.130434783e+06,-7.594789124e+01,
+4.347826087e+06,-7.591992950e+01,
+4.565217391e+06,-7.571629333e+01,
+4.782608696e+06,-7.575357819e+01,
+5.000000000e+06,-7.562644196e+01,
+5.217391304e+06,-7.539930725e+01,
+5.434782609e+06,-7.530348206e+01,
+5.652173913e+06,-7.514773560e+01,
+5.869565217e+06,-7.515369415e+01,
+6.086956522e+06,-7.508855438e+01,
+6.304347826e+06,-7.521232605e+01,
+6.521739130e+06,-7.491761017e+01,
+6.739130435e+06,-7.504640198e+01,
+6.956521739e+06,-7.484519958e+01,
+7.173913043e+06,-7.462239075e+01,
+7.391304348e+06,-7.452951050e+01,
+7.608695652e+06,-7.427868652e+01,
+7.826086957e+06,-7.445038605e+01,
+8.043478261e+06,-7.435195923e+01,
+8.260869565e+06,-7.446052551e+01,
+8.478260870e+06,-7.432633972e+01,
+8.695652174e+06,-7.433869934e+01,
+8.913043478e+06,-7.412605286e+01,
+9.130434783e+06,-7.407952881e+01,
+9.347826087e+06,-7.354529572e+01,
+9.565217391e+06,-7.338385773e+01,
+9.782608696e+06,-7.340975189e+01,
+1.000000000e+07,-7.340095520e+01,
+1.021739130e+07,-7.336271667e+01,
+1.043478261e+07,-7.347676086e+01,
+1.065217391e+07,-7.335610962e+01,
+1.086956522e+07,-7.314428711e+01,
+1.108695652e+07,-7.340924072e+01,
+1.130434783e+07,-7.325759888e+01,
+1.152173913e+07,-7.281859589e+01,
+1.173913043e+07,-7.212499237e+01,
+1.195652174e+07,-7.208264160e+01,
+1.217391304e+07,-7.220115662e+01,
+1.239130435e+07,-7.266494751e+01,
+1.260869565e+07,-7.335746002e+01,
+1.282608696e+07,-7.407435608e+01,
+1.304347826e+07,-7.440287781e+01,
+1.326086957e+07,-7.485990906e+01,
+1.347826087e+07,-7.459721375e+01,
+1.369565217e+07,-7.436145020e+01,
+1.391304348e+07,-7.447087097e+01,
+1.413043478e+07,-7.443783569e+01,
+1.434782609e+07,-7.473271179e+01,
+1.456521739e+07,-7.488253784e+01,
+1.478260870e+07,-7.523854065e+01,
+1.500000000e+07,-7.512947845e+01,
+1.521739130e+07,-7.483533478e+01,
+1.543478261e+07,-7.484944153e+01,
+1.565217391e+07,-7.477583313e+01,
+1.586956522e+07,-7.453504944e+01,
+1.608695652e+07,-7.468637085e+01,
+1.630434783e+07,-7.467712402e+01,
+1.652173913e+07,-7.446785736e+01,
+1.673913043e+07,-7.443210602e+01,
+1.695652174e+07,-7.438774109e+01,
+1.717391304e+07,-7.433370972e+01,
+1.739130435e+07,-7.434973907e+01,
+1.760869565e+07,-7.441363525e+01,
+1.782608696e+07,-7.445658112e+01,
+1.804347826e+07,-7.452691650e+01,
+1.826086957e+07,-7.456516266e+01,
+1.847826087e+07,-7.424030304e+01,
+1.869565217e+07,-7.459825134e+01,
+1.891304348e+07,-7.475774384e+01,
+1.913043478e+07,-7.448552704e+01,
+1.934782609e+07,-7.489138031e+01,
+1.956521739e+07,-7.474600220e+01,
+1.978260870e+07,-7.504145050e+01,
+2.000000000e+07,-7.478292847e+01,
+2.021739130e+07,-7.473242188e+01,
+2.043478261e+07,-7.488113403e+01,
+2.065217391e+07,-7.491197968e+01,
+2.086956522e+07,-7.466062927e+01,
+2.108695652e+07,-7.450428009e+01,
+2.130434783e+07,-7.470005035e+01,
+2.152173913e+07,-7.469819641e+01,
+2.173913043e+07,-7.490830231e+01,
+2.195652174e+07,-7.490632629e+01,
+2.217391304e+07,-7.501188660e+01,
+2.239130435e+07,-7.494329071e+01,
+2.260869565e+07,-7.520811462e+01,
+2.282608696e+07,-7.519837952e+01,
+2.304347826e+07,-7.525791168e+01,
+2.326086957e+07,-7.532004547e+01,
+2.347826087e+07,-7.523048401e+01,
+2.369565217e+07,-7.546318054e+01,
+2.391304348e+07,-7.522053528e+01,
+2.413043478e+07,-7.529762268e+01,
+2.434782609e+07,-7.531845856e+01,
+2.456521739e+07,-7.550666809e+01,
+2.478260870e+07,-7.560757446e+01,
+2.500000000e+07,-7.552393341e+01,
+2.521739130e+07,-7.554075623e+01,
+2.543478261e+07,-7.564123535e+01,
+2.565217391e+07,-7.549153900e+01,
+2.586956522e+07,-7.559846497e+01,
+2.608695652e+07,-7.546424103e+01,
+2.630434783e+07,-7.546377563e+01,
+2.652173913e+07,-7.547171021e+01,
+2.673913043e+07,-7.547179413e+01,
+2.695652174e+07,-7.541786194e+01,
+2.717391304e+07,-7.554741669e+01,
+2.739130435e+07,-7.534336090e+01,
+2.760869565e+07,-7.540987396e+01,
+2.782608696e+07,-7.542869568e+01,
+2.804347826e+07,-7.535540771e+01,
+2.826086957e+07,-7.521174622e+01,
+2.847826087e+07,-7.525424957e+01,
+2.869565217e+07,-7.496473694e+01,
+2.891304348e+07,-7.537617493e+01,
+2.913043478e+07,-7.517514038e+01,
+2.934782609e+07,-7.518420410e+01,
+2.956521739e+07,-7.519439697e+01,
+2.978260870e+07,-7.501422119e+01,
+3.000000000e+07,-7.521478271e+01,
+3.021739130e+07,-7.514260864e+01,
+3.043478261e+07,-7.509143066e+01,
+3.065217391e+07,-7.517912292e+01,
+3.086956522e+07,-7.529222107e+01,
+3.108695652e+07,-7.550025177e+01,
+3.130434783e+07,-7.563616943e+01,
+3.152173913e+07,-7.544688416e+01,
+3.173913043e+07,-7.556101990e+01,
+3.195652174e+07,-7.557350922e+01,
+3.217391304e+07,-7.545507813e+01,
+3.239130435e+07,-7.543221283e+01,
+3.260869565e+07,-7.560788727e+01,
+3.282608696e+07,-7.572429657e+01,
+3.304347826e+07,-7.586747742e+01,
+3.326086957e+07,-7.564157867e+01,
+3.347826087e+07,-7.541894531e+01,
+3.369565217e+07,-7.553830719e+01,
+3.391304348e+07,-7.549513245e+01,
+3.413043478e+07,-7.546341705e+01,
+3.434782609e+07,-7.541521454e+01,
+3.456521739e+07,-7.528121185e+01,
+3.478260870e+07,-7.537763214e+01,
+3.500000000e+07,-7.537046051e+01,
+3.521739130e+07,-7.547583008e+01,
+3.543478261e+07,-7.553291321e+01,
+3.565217391e+07,-7.563160706e+01,
+3.586956522e+07,-7.540946198e+01,
+3.608695652e+07,-7.549756622e+01,
+3.630434783e+07,-7.558409119e+01,
+3.652173913e+07,-7.569269562e+01,
+3.673913043e+07,-7.553827667e+01,
+3.695652174e+07,-7.575300598e+01,
+3.717391304e+07,-7.561577606e+01,
+3.739130435e+07,-7.571897125e+01,
+3.760869565e+07,-7.577281189e+01,
+3.782608696e+07,-7.591017151e+01,
+3.804347826e+07,-7.562746429e+01,
+3.826086957e+07,-7.573397827e+01,
+3.847826087e+07,-7.571646881e+01,
+3.869565217e+07,-7.585504150e+01,
+3.891304348e+07,-7.589032745e+01,
+3.913043478e+07,-7.591414642e+01,
+3.934782609e+07,-7.592298889e+01,
+3.956521739e+07,-7.592362213e+01,
+3.978260870e+07,-7.585474396e+01,
+4.000000000e+07,-7.592626953e+01,
+4.021739130e+07,-7.573008728e+01,
+4.043478261e+07,-7.585841370e+01,
+4.065217391e+07,-7.602801514e+01,
+4.086956522e+07,-7.584742737e+01,
+4.108695652e+07,-7.593286896e+01,
+4.130434783e+07,-7.614745331e+01,
+4.152173913e+07,-7.620780945e+01,
+4.173913043e+07,-7.588944244e+01,
+4.195652174e+07,-7.621149445e+01,
+4.217391304e+07,-7.596418762e+01,
+4.239130435e+07,-7.617904663e+01,
+4.260869565e+07,-7.615671539e+01,
+4.282608696e+07,-7.623861694e+01,
+4.304347826e+07,-7.614196014e+01,
+4.326086957e+07,-7.620732880e+01,
+4.347826087e+07,-7.633525085e+01,
+4.369565217e+07,-7.642212677e+01,
+4.391304348e+07,-7.639810944e+01,
+4.413043478e+07,-7.637190247e+01,
+4.434782609e+07,-7.633372498e+01,
+4.456521739e+07,-7.676876068e+01,
+4.478260870e+07,-7.665122986e+01,
+4.500000000e+07,-7.678676605e+01,
+4.521739130e+07,-7.677778625e+01,
+4.543478261e+07,-7.674114990e+01,
+4.565217391e+07,-7.684368134e+01,
+4.586956522e+07,-7.684197235e+01,
+4.608695652e+07,-7.709236145e+01,
+4.630434783e+07,-7.716667938e+01,
+4.652173913e+07,-7.727088928e+01,
+4.673913043e+07,-7.711903381e+01,
+4.695652174e+07,-7.720623779e+01,
+4.717391304e+07,-7.720072174e+01,
+4.739130435e+07,-7.731114960e+01,
+4.760869565e+07,-7.736970520e+01,
+4.782608696e+07,-7.732640839e+01,
+4.804347826e+07,-7.748266602e+01,
+4.826086957e+07,-7.772358704e+01,
+4.847826087e+07,-7.765032959e+01,
+4.869565217e+07,-7.783279419e+01,
+4.891304348e+07,-7.768833160e+01,
+4.913043478e+07,-7.781562805e+01,
+4.934782609e+07,-7.804254913e+01,
+4.956521739e+07,-7.809965515e+01,
+4.978260870e+07,-7.810620117e+01,
+5.000000000e+07,-7.817686462e+01,
+5.021739130e+07,-7.855920410e+01,
+5.043478261e+07,-7.852815247e+01,
+5.065217391e+07,-7.856784821e+01,
+5.086956522e+07,-7.859635925e+01,
+5.108695652e+07,-7.878620911e+01,
+5.130434783e+07,-7.886760712e+01,
+5.152173913e+07,-7.894638824e+01,
+5.173913043e+07,-7.941780090e+01,
+5.195652174e+07,-7.958525085e+01,
+5.217391304e+07,-7.968319702e+01,
+5.239130435e+07,-7.959902954e+01,
+5.260869565e+07,-7.988707733e+01,
+5.282608696e+07,-8.001992035e+01,
+5.304347826e+07,-8.020430756e+01,
+5.326086957e+07,-8.019068909e+01,
+5.347826087e+07,-8.047972107e+01,
+5.369565217e+07,-8.060102844e+01,
+5.391304348e+07,-8.069577789e+01,
+5.413043478e+07,-8.072868347e+01,
+5.434782609e+07,-8.096898651e+01,
+5.456521739e+07,-8.072783661e+01,
+5.478260870e+07,-8.090563965e+01,
+5.500000000e+07,-8.101840210e+01,
+5.521739130e+07,-8.086408997e+01,
+5.543478261e+07,-8.118753052e+01,
+5.565217391e+07,-8.121659088e+01,
+5.586956522e+07,-8.152161407e+01,
+5.608695652e+07,-8.134184265e+01,
+5.630434783e+07,-8.149951172e+01,
+5.652173913e+07,-8.166040802e+01,
+5.673913043e+07,-8.221226501e+01,
+5.695652174e+07,-8.179990387e+01,
+5.717391304e+07,-8.201550293e+01,
+5.739130435e+07,-8.219120789e+01,
+5.760869565e+07,-8.239898682e+01,
+5.782608696e+07,-8.256490326e+01,
+5.804347826e+07,-8.265386963e+01,
+5.826086957e+07,-8.263435364e+01,
+5.847826087e+07,-8.273921967e+01,
+5.869565217e+07,-8.281109619e+01,
+5.891304348e+07,-8.273369598e+01,
+5.913043478e+07,-8.247435760e+01,
+5.934782609e+07,-8.252064514e+01,
+5.956521739e+07,-8.270845032e+01,
+5.978260870e+07,-8.282209778e+01,
+6.000000000e+07,-8.318377686e+01,
+6.021739130e+07,-8.323170471e+01,
+6.043478261e+07,-8.329733276e+01,
+6.065217391e+07,-8.347434998e+01,
+6.086956522e+07,-8.346170807e+01,
+6.108695652e+07,-8.358286285e+01,
+6.130434783e+07,-8.357756042e+01,
+6.152173913e+07,-8.393263245e+01,
+6.173913043e+07,-8.367201233e+01,
+6.195652174e+07,-8.402311707e+01,
+6.217391304e+07,-8.382852173e+01,
+6.239130435e+07,-8.415155029e+01,
+6.260869565e+07,-8.406150818e+01,
+6.282608696e+07,-8.432604218e+01,
+6.304347826e+07,-8.414465332e+01,
+6.326086957e+07,-8.410817719e+01,
+6.347826087e+07,-8.428427124e+01,
+6.369565217e+07,-8.425413513e+01,
+6.391304348e+07,-8.432148743e+01,
+6.413043478e+07,-8.428559875e+01,
+6.434782609e+07,-8.453743744e+01,
+6.456521739e+07,-8.450270081e+01,
+6.478260870e+07,-8.439476013e+01,
+6.500000000e+07,-8.449337769e+01,
+6.521739130e+07,-8.467757416e+01,
+6.543478261e+07,-8.467399597e+01,
+6.565217391e+07,-8.489740753e+01,
+6.586956522e+07,-8.542921448e+01,
+6.608695652e+07,-8.559761047e+01,
+6.630434783e+07,-8.581381989e+01,
+6.652173913e+07,-8.593927765e+01,
+6.673913043e+07,-8.603338623e+01,
+6.695652174e+07,-8.597570801e+01,
+6.717391304e+07,-8.619543457e+01,
+6.739130435e+07,-8.621949768e+01,
+6.760869565e+07,-8.614337158e+01,
+6.782608696e+07,-8.638887787e+01,
+6.804347826e+07,-8.598168182e+01,
+6.826086957e+07,-8.621357727e+01,
+6.847826087e+07,-8.623574066e+01,
+6.869565217e+07,-8.631166840e+01,
+6.891304348e+07,-8.639409637e+01,
+6.913043478e+07,-8.636036682e+01,
+6.934782609e+07,-8.638176727e+01,
+6.956521739e+07,-8.640251923e+01,
+6.978260870e+07,-8.661843109e+01,
+7.000000000e+07,-8.652108002e+01,
+7.021739130e+07,-8.637706757e+01,
+7.043478261e+07,-8.638432312e+01,
+7.065217391e+07,-8.663208771e+01,
+7.086956522e+07,-8.634719086e+01,
+7.108695652e+07,-8.632875824e+01,
+7.130434783e+07,-8.634204865e+01,
+7.152173913e+07,-8.657310486e+01,
+7.173913043e+07,-8.670861053e+01,
+7.195652174e+07,-8.650458527e+01,
+7.217391304e+07,-8.637869263e+01,
+7.239130435e+07,-8.671105957e+01,
+7.260869565e+07,-8.693641663e+01,
+7.282608696e+07,-8.693879700e+01,
+7.304347826e+07,-8.683270264e+01,
+7.326086957e+07,-8.729072571e+01,
+7.347826087e+07,-8.722801971e+01,
+7.369565217e+07,-8.746193695e+01,
+7.391304348e+07,-8.727815247e+01,
+7.413043478e+07,-8.729850006e+01,
+7.434782609e+07,-8.764039612e+01,
+7.456521739e+07,-8.769041443e+01,
+7.478260870e+07,-8.734178925e+01,
+7.500000000e+07,-8.766429901e+01,
+7.521739130e+07,-8.779747009e+01,
+7.543478261e+07,-8.783479309e+01,
+7.565217391e+07,-8.774205780e+01,
+7.586956522e+07,-8.774940491e+01,
+7.608695652e+07,-8.776664734e+01,
+7.630434783e+07,-8.794032288e+01,
+7.652173913e+07,-8.796557617e+01,
+7.673913043e+07,-8.797463989e+01,
+7.695652174e+07,-8.787939453e+01,
+7.717391304e+07,-8.779917145e+01,
+7.739130435e+07,-8.782119751e+01,
+7.760869565e+07,-8.785762024e+01,
+7.782608696e+07,-8.785369110e+01,
+7.804347826e+07,-8.769118500e+01,
+7.826086957e+07,-8.797579956e+01,
+7.847826087e+07,-8.796073914e+01,
+7.869565217e+07,-8.766969299e+01,
+7.891304348e+07,-8.767677307e+01,
+7.913043478e+07,-8.775611115e+01,
+7.934782609e+07,-8.783171082e+01,
+7.956521739e+07,-8.801880646e+01,
+7.978260870e+07,-8.787989807e+01,
+8.000000000e+07,-8.769681549e+01,
+8.021739130e+07,-8.781567383e+01,
+8.043478261e+07,-8.758022308e+01,
+8.065217391e+07,-8.777503967e+01,
+8.086956522e+07,-8.790441895e+01,
+8.108695652e+07,-8.775942230e+01,
+8.130434783e+07,-8.768740082e+01,
+8.152173913e+07,-8.757855988e+01,
+8.173913043e+07,-8.774900055e+01,
+8.195652174e+07,-8.767720032e+01,
+8.217391304e+07,-8.772026062e+01,
+8.239130435e+07,-8.772546387e+01,
+8.260869565e+07,-8.767887878e+01,
+8.282608696e+07,-8.785294342e+01,
+8.304347826e+07,-8.776878357e+01,
+8.326086957e+07,-8.778304291e+01,
+8.347826087e+07,-8.778343201e+01,
+8.369565217e+07,-8.778683472e+01,
+8.391304348e+07,-8.776041412e+01,
+8.413043478e+07,-8.795446014e+01,
+8.434782609e+07,-8.789620209e+01,
+8.456521739e+07,-8.808062744e+01,
+8.478260870e+07,-8.796183014e+01,
+8.500000000e+07,-8.802352142e+01,
+8.521739130e+07,-8.778176117e+01,
+8.543478261e+07,-8.797342682e+01,
+8.565217391e+07,-8.801253510e+01,
+8.586956522e+07,-8.815223694e+01,
+8.608695652e+07,-8.796371460e+01,
+8.630434783e+07,-8.813071442e+01,
+8.652173913e+07,-8.813108826e+01,
+8.673913043e+07,-8.831960297e+01,
+8.695652174e+07,-8.827878571e+01,
+8.717391304e+07,-8.828182220e+01,
+8.739130435e+07,-8.812301636e+01,
+8.760869565e+07,-8.817005920e+01,
+8.782608696e+07,-8.803992462e+01,
+8.804347826e+07,-8.754098511e+01,
+8.826086957e+07,-8.642420959e+01,
+8.847826087e+07,-8.446601105e+01,
+8.869565217e+07,-8.259217834e+01,
+8.891304348e+07,-8.135020447e+01,
+8.913043478e+07,-8.105235291e+01,
+8.934782609e+07,-8.150069427e+01,
+8.956521739e+07,-8.214167023e+01,
+8.978260870e+07,-8.236891174e+01,
+9.000000000e+07,-8.253534698e+01,
+9.021739130e+07,-8.348693085e+01,
+9.043478261e+07,-8.391308594e+01,
+9.065217391e+07,-8.423799133e+01,
+9.086956522e+07,-8.493400574e+01,
+9.108695652e+07,-8.593818665e+01,
+9.130434783e+07,-8.708424377e+01,
+9.152173913e+07,-8.810057831e+01,
+9.173913043e+07,-8.823535156e+01,
+9.195652174e+07,-8.854521179e+01,
+9.217391304e+07,-8.874443817e+01,
+9.239130435e+07,-8.839784241e+01,
+9.260869565e+07,-8.873386383e+01,
+9.282608696e+07,-8.863253021e+01,
+9.304347826e+07,-8.858293915e+01,
+9.326086957e+07,-8.879125977e+01,
+9.347826087e+07,-8.878706360e+01,
+9.369565217e+07,-8.876814270e+01,
+9.391304348e+07,-8.871913147e+01,
+9.413043478e+07,-8.859307861e+01,
+9.434782609e+07,-8.859239197e+01,
+9.456521739e+07,-8.815818024e+01,
+9.478260870e+07,-8.786430359e+01,
+9.500000000e+07,-8.789871216e+01,
+9.521739130e+07,-8.824828339e+01,
+9.543478261e+07,-8.866226196e+01,
+9.565217391e+07,-8.880682373e+01,
+9.586956522e+07,-8.894111633e+01,
+9.608695652e+07,-8.876649475e+01,
+9.630434783e+07,-8.891642761e+01,
+9.652173913e+07,-8.904483795e+01,
+9.673913043e+07,-8.900002289e+01,
+9.695652174e+07,-8.889544678e+01,
+9.717391304e+07,-8.888251495e+01,
+9.739130435e+07,-8.914837646e+01,
+9.760869565e+07,-8.911339569e+01,
+9.782608696e+07,-8.923132324e+01,
+9.804347826e+07,-8.904249573e+01,
+9.826086957e+07,-8.869918823e+01,
+9.847826087e+07,-8.840681458e+01,
+9.869565217e+07,-8.805303192e+01,
+9.891304348e+07,-8.747400665e+01,
+9.913043478e+07,-8.742573547e+01,
+9.934782609e+07,-8.784801483e+01,
+9.956521739e+07,-8.822457886e+01,
+9.978260870e+07,-8.864121246e+01,
+1.000000000e+08,-8.886128235e+01,
