Machine Module,N9343C,CN0605A298
MCU Version,A.06.27
DSP Version,A.05.02.02 SA
FPGA Version,A.02.80
10:58:49 07.10.2020
Y Axis Scale,LOG
Y Axis Unit,dBm
Impedance,50
Number of Points,461
Sweep Time(s),1.005100,MAN
Start Frequency,+0.000000000e+00
Stop Frequency,+1.000000000e+08
Frequency Offset,+0.000000000e+00
Average Type,Log Pwr
RBW,+1.000000000e+06,MAN
VBW,+1.000000000e+06,AUTO
Sweep Type,Continuous
Sweep Mode,Sweep
Speed,Fast
PreAmp State,OFF
Ref Level,-5.000000000e+01
Attenuation,0,MAN
Ref Level Offset,+0.000000000e+00
X Axis Units,Hz
HiSensitive,OFF
Trigger Source,FreeRun
Trigger Level,+0.000000000e+00
Trigger Slope,RISE
Trigger Delay,+0.000000000e+00,OFF
Gate Sweep,OFF
Gate View,OFF
Gate Delay,+2.280000000e-03
Gate Length,+8.400000000e-04
Gate Source,External
Burst Level,-2.000000000e+01
Burst Trigger Slope,Rise
Timer Period,+3.120000000e-03
Timer Offset,+0.000000000e+00
Sync Source,Off
Apply Corrections,OFF
Antenna Unit,OFF
Correction1,Off
Correction2,Off
Correction3,Off
Correction4,Off
Marker Information
Marker,Trace,Type,X Axis,Amplitude
M1,1,Frequency,5.00 MHz,-75.74 dBm
M2,1,Frequency,10.00 MHz,-74.34 dBm
M3,1,Frequency,20.00 MHz,-74.74 dBm
M4,1,Frequency,30.00 MHz,-75.29 dBm
M5,1,Frequency,40.00 MHz,-75.67 dBm
M6,1,Frequency,50.00 MHz,-77.85 dBm
CISPR Filter,Normal RBW,Dwell Time(s),0.500000,AUTO
Trace Math,Off
Trace Math By,Log Power
Trace Variable A,Trace1
Trace Variable B,Trace2
Trace Variable C,Trace3
Trace Name,Trace1,
Trace Count,20,
Trace Type,Clear Write,
Trace Detector,Average,
Trace Data
+0.000000000e+00,-1.184882927e+01,
+2.173913043e+05,-2.716763306e+01,
+4.347826087e+05,-2.981611061e+01,
+6.521739130e+05,-3.284500122e+01,
+8.695652174e+05,-3.693271637e+01,
+1.086956522e+06,-4.207582855e+01,
+1.304347826e+06,-4.833803177e+01,
+1.521739130e+06,-5.573563385e+01,
+1.739130435e+06,-6.439173889e+01,
+1.956521739e+06,-7.288717651e+01,
+2.173913043e+06,-7.602497864e+01,
+2.391304348e+06,-7.643404388e+01,
+2.608695652e+06,-7.643274689e+01,
+2.826086957e+06,-7.619841003e+01,
+3.043478261e+06,-7.627433014e+01,
+3.260869565e+06,-7.580480957e+01,
+3.478260870e+06,-7.563529205e+01,
+3.695652174e+06,-7.572384644e+01,
+3.913043478e+06,-7.564252472e+01,
+4.130434783e+06,-7.558925629e+01,
+4.347826087e+06,-7.563453674e+01,
+4.565217391e+06,-7.573388672e+01,
+4.782608696e+06,-7.577079010e+01,
+5.000000000e+06,-7.573647308e+01,
+5.217391304e+06,-7.572312927e+01,
+5.434782609e+06,-7.561955261e+01,
+5.652173913e+06,-7.560126495e+01,
+5.869565217e+06,-7.537725830e+01,
+6.086956522e+06,-7.544146729e+01,
+6.304347826e+06,-7.548716736e+01,
+6.521739130e+06,-7.537767029e+01,
+6.739130435e+06,-7.535199738e+01,
+6.956521739e+06,-7.525892639e+01,
+7.173913043e+06,-7.517556763e+01,
+7.391304348e+06,-7.479248810e+01,
+7.608695652e+06,-7.492446136e+01,
+7.826086957e+06,-7.510889435e+01,
+8.043478261e+06,-7.504996490e+01,
+8.260869565e+06,-7.494621277e+01,
+8.478260870e+06,-7.507712555e+01,
+8.695652174e+06,-7.461048889e+01,
+8.913043478e+06,-7.439723206e+01,
+9.130434783e+06,-7.398609924e+01,
+9.347826087e+06,-7.378483582e+01,
+9.565217391e+06,-7.385309601e+01,
+9.782608696e+06,-7.393445587e+01,
+1.000000000e+07,-7.434208679e+01,
+1.021739130e+07,-7.493487549e+01,
+1.043478261e+07,-7.496157837e+01,
+1.065217391e+07,-7.520166016e+01,
+1.086956522e+07,-7.524364471e+01,
+1.108695652e+07,-7.525503540e+01,
+1.130434783e+07,-7.522108459e+01,
+1.152173913e+07,-7.515620422e+01,
+1.173913043e+07,-7.511766052e+01,
+1.195652174e+07,-7.525513458e+01,
+1.217391304e+07,-7.497193909e+01,
+1.239130435e+07,-7.520323181e+01,
+1.260869565e+07,-7.519943237e+01,
+1.282608696e+07,-7.523738098e+01,
+1.304347826e+07,-7.525366211e+01,
+1.326086957e+07,-7.502013397e+01,
+1.347826087e+07,-7.500987244e+01,
+1.369565217e+07,-7.521360779e+01,
+1.391304348e+07,-7.495351410e+01,
+1.413043478e+07,-7.516176605e+01,
+1.434782609e+07,-7.504847717e+01,
+1.456521739e+07,-7.511557007e+01,
+1.478260870e+07,-7.517082977e+01,
+1.500000000e+07,-7.474926758e+01,
+1.521739130e+07,-7.535134888e+01,
+1.543478261e+07,-7.525296783e+01,
+1.565217391e+07,-7.551768494e+01,
+1.586956522e+07,-7.525977325e+01,
+1.608695652e+07,-7.516355133e+01,
+1.630434783e+07,-7.510794830e+01,
+1.652173913e+07,-7.488357544e+01,
+1.673913043e+07,-7.480458832e+01,
+1.695652174e+07,-7.470775604e+01,
+1.717391304e+07,-7.476533508e+01,
+1.739130435e+07,-7.452245331e+01,
+1.760869565e+07,-7.451364136e+01,
+1.782608696e+07,-7.461588287e+01,
+1.804347826e+07,-7.465283203e+01,
+1.826086957e+07,-7.467179871e+01,
+1.847826087e+07,-7.466846466e+01,
+1.869565217e+07,-7.471987915e+01,
+1.891304348e+07,-7.470556641e+01,
+1.913043478e+07,-7.483413696e+01,
+1.934782609e+07,-7.480708313e+01,
+1.956521739e+07,-7.501626587e+01,
+1.978260870e+07,-7.486868286e+01,
+2.000000000e+07,-7.473960114e+01,
+2.021739130e+07,-7.492053223e+01,
+2.043478261e+07,-7.450350952e+01,
+2.065217391e+07,-7.456919861e+01,
+2.086956522e+07,-7.409099579e+01,
+2.108695652e+07,-7.415577698e+01,
+2.130434783e+07,-7.406822205e+01,
+2.152173913e+07,-7.414115906e+01,
+2.173913043e+07,-7.393875885e+01,
+2.195652174e+07,-7.411543274e+01,
+2.217391304e+07,-7.417171478e+01,
+2.239130435e+07,-7.467961121e+01,
+2.260869565e+07,-7.450859833e+01,
+2.282608696e+07,-7.478303528e+01,
+2.304347826e+07,-7.481018066e+01,
+2.326086957e+07,-7.497811127e+01,
+2.347826087e+07,-7.489678955e+01,
+2.369565217e+07,-7.485320282e+01,
+2.391304348e+07,-7.520948029e+01,
+2.413043478e+07,-7.498040771e+01,
+2.434782609e+07,-7.502329254e+01,
+2.456521739e+07,-7.495634460e+01,
+2.478260870e+07,-7.518509674e+01,
+2.500000000e+07,-7.503072357e+01,
+2.521739130e+07,-7.516007233e+01,
+2.543478261e+07,-7.520079041e+01,
+2.565217391e+07,-7.524390411e+01,
+2.586956522e+07,-7.521984863e+01,
+2.608695652e+07,-7.532772827e+01,
+2.630434783e+07,-7.527053070e+01,
+2.652173913e+07,-7.519189453e+01,
+2.673913043e+07,-7.510182190e+01,
+2.695652174e+07,-7.517933655e+01,
+2.717391304e+07,-7.512989807e+01,
+2.739130435e+07,-7.501308441e+01,
+2.760869565e+07,-7.498407745e+01,
+2.782608696e+07,-7.483209229e+01,
+2.804347826e+07,-7.492417908e+01,
+2.826086957e+07,-7.442441559e+01,
+2.847826087e+07,-7.486985779e+01,
+2.869565217e+07,-7.477632141e+01,
+2.891304348e+07,-7.509821320e+01,
+2.913043478e+07,-7.511460876e+01,
+2.934782609e+07,-7.527751160e+01,
+2.956521739e+07,-7.538092804e+01,
+2.978260870e+07,-7.514962006e+01,
+3.000000000e+07,-7.529376984e+01,
+3.021739130e+07,-7.547682190e+01,
+3.043478261e+07,-7.534470367e+01,
+3.065217391e+07,-7.555001068e+01,
+3.086956522e+07,-7.555253601e+01,
+3.108695652e+07,-7.522702026e+01,
+3.130434783e+07,-7.528870392e+01,
+3.152173913e+07,-7.528153992e+01,
+3.173913043e+07,-7.529032898e+01,
+3.195652174e+07,-7.518589783e+01,
+3.217391304e+07,-7.519290161e+01,
+3.239130435e+07,-7.538137054e+01,
+3.260869565e+07,-7.524396515e+01,
+3.282608696e+07,-7.530457306e+01,
+3.304347826e+07,-7.527786255e+01,
+3.326086957e+07,-7.543153381e+01,
+3.347826087e+07,-7.579907227e+01,
+3.369565217e+07,-7.562434387e+01,
+3.391304348e+07,-7.529951477e+01,
+3.413043478e+07,-7.528173828e+01,
+3.434782609e+07,-7.547701263e+01,
+3.456521739e+07,-7.533992767e+01,
+3.478260870e+07,-7.525595856e+01,
+3.500000000e+07,-7.534822083e+01,
+3.521739130e+07,-7.542404175e+01,
+3.543478261e+07,-7.514269257e+01,
+3.565217391e+07,-7.542372894e+01,
+3.586956522e+07,-7.536297607e+01,
+3.608695652e+07,-7.524450684e+01,
+3.630434783e+07,-7.544288635e+01,
+3.652173913e+07,-7.549881744e+01,
+3.673913043e+07,-7.551024628e+01,
+3.695652174e+07,-7.545861816e+01,
+3.717391304e+07,-7.567771912e+01,
+3.739130435e+07,-7.558271790e+01,
+3.760869565e+07,-7.566857910e+01,
+3.782608696e+07,-7.557535553e+01,
+3.804347826e+07,-7.567564392e+01,
+3.826086957e+07,-7.564781952e+01,
+3.847826087e+07,-7.571648407e+01,
+3.869565217e+07,-7.579234314e+01,
+3.891304348e+07,-7.573300171e+01,
+3.913043478e+07,-7.557887268e+01,
+3.934782609e+07,-7.562149811e+01,
+3.956521739e+07,-7.583265686e+01,
+3.978260870e+07,-7.559164429e+01,
+4.000000000e+07,-7.566737366e+01,
+4.021739130e+07,-7.580364990e+01,
+4.043478261e+07,-7.584654236e+01,
+4.065217391e+07,-7.599884033e+01,
+4.086956522e+07,-7.607661438e+01,
+4.108695652e+07,-7.585270691e+01,
+4.130434783e+07,-7.588558197e+01,
+4.152173913e+07,-7.598947906e+01,
+4.173913043e+07,-7.593548584e+01,
+4.195652174e+07,-7.596482849e+01,
+4.217391304e+07,-7.605686188e+01,
+4.239130435e+07,-7.603089905e+01,
+4.260869565e+07,-7.604064178e+01,
+4.282608696e+07,-7.610554504e+01,
+4.304347826e+07,-7.614223480e+01,
+4.326086957e+07,-7.609374237e+01,
+4.347826087e+07,-7.602693176e+01,
+4.369565217e+07,-7.632301331e+01,
+4.391304348e+07,-7.648930359e+01,
+4.413043478e+07,-7.638404846e+01,
+4.434782609e+07,-7.652762604e+01,
+4.456521739e+07,-7.640153503e+01,
+4.478260870e+07,-7.656923676e+01,
+4.500000000e+07,-7.662120056e+01,
+4.521739130e+07,-7.656704712e+01,
+4.543478261e+07,-7.678203583e+01,
+4.565217391e+07,-7.676999664e+01,
+4.586956522e+07,-7.670796967e+01,
+4.608695652e+07,-7.684823608e+01,
+4.630434783e+07,-7.686938477e+01,
+4.652173913e+07,-7.678415680e+01,
+4.673913043e+07,-7.714933777e+01,
+4.695652174e+07,-7.698455811e+01,
+4.717391304e+07,-7.702600098e+01,
+4.739130435e+07,-7.734243011e+01,
+4.760869565e+07,-7.732304382e+01,
+4.782608696e+07,-7.725299072e+01,
+4.804347826e+07,-7.720028687e+01,
+4.826086957e+07,-7.740844727e+01,
+4.847826087e+07,-7.743873596e+01,
+4.869565217e+07,-7.747075653e+01,
+4.891304348e+07,-7.741386414e+01,
+4.913043478e+07,-7.770405579e+01,
+4.934782609e+07,-7.742048645e+01,
+4.956521739e+07,-7.771780396e+01,
+4.978260870e+07,-7.770635986e+01,
+5.000000000e+07,-7.785366821e+01,
+5.021739130e+07,-7.775556946e+01,
+5.043478261e+07,-7.792243958e+01,
+5.065217391e+07,-7.814931488e+01,
+5.086956522e+07,-7.802211761e+01,
+5.108695652e+07,-7.818730164e+01,
+5.130434783e+07,-7.840480804e+01,
+5.152173913e+07,-7.862781525e+01,
+5.173913043e+07,-7.862106323e+01,
+5.195652174e+07,-7.875494385e+01,
+5.217391304e+07,-7.873976898e+01,
+5.239130435e+07,-7.903559113e+01,
+5.260869565e+07,-7.929680634e+01,
+5.282608696e+07,-7.926357269e+01,
+5.304347826e+07,-7.944708252e+01,
+5.326086957e+07,-7.967774963e+01,
+5.347826087e+07,-7.969139099e+01,
+5.369565217e+07,-7.985295868e+01,
+5.391304348e+07,-7.990291595e+01,
+5.413043478e+07,-8.003815460e+01,
+5.434782609e+07,-8.041566467e+01,
+5.456521739e+07,-8.041156006e+01,
+5.478260870e+07,-8.044740295e+01,
+5.500000000e+07,-8.059394073e+01,
+5.521739130e+07,-8.062925720e+01,
+5.543478261e+07,-8.065414429e+01,
+5.565217391e+07,-8.060453796e+01,
+5.586956522e+07,-8.090460968e+01,
+5.608695652e+07,-8.096546936e+01,
+5.630434783e+07,-8.105316162e+01,
+5.652173913e+07,-8.125177765e+01,
+5.673913043e+07,-8.142145538e+01,
+5.695652174e+07,-8.140634155e+01,
+5.717391304e+07,-8.157518768e+01,
+5.739130435e+07,-8.152321625e+01,
+5.760869565e+07,-8.171121979e+01,
+5.782608696e+07,-8.158728027e+01,
+5.804347826e+07,-8.170359802e+01,
+5.826086957e+07,-8.171371460e+01,
+5.847826087e+07,-8.193280029e+01,
+5.869565217e+07,-8.195417786e+01,
+5.891304348e+07,-8.201401520e+01,
+5.913043478e+07,-8.209805298e+01,
+5.934782609e+07,-8.185636902e+01,
+5.956521739e+07,-8.163286591e+01,
+5.978260870e+07,-8.117067719e+01,
+6.000000000e+07,-8.053105164e+01,
+6.021739130e+07,-7.980611420e+01,
+6.043478261e+07,-7.955152893e+01,
+6.065217391e+07,-7.921496582e+01,
+6.086956522e+07,-7.943138885e+01,
+6.108695652e+07,-7.968196869e+01,
+6.130434783e+07,-7.992436218e+01,
+6.152173913e+07,-8.003952789e+01,
+6.173913043e+07,-8.054642487e+01,
+6.195652174e+07,-8.114540100e+01,
+6.217391304e+07,-8.140951538e+01,
+6.239130435e+07,-8.170249176e+01,
+6.260869565e+07,-8.190236664e+01,
+6.282608696e+07,-8.178176117e+01,
+6.304347826e+07,-8.229295349e+01,
+6.326086957e+07,-8.223533630e+01,
+6.347826087e+07,-8.241677094e+01,
+6.369565217e+07,-8.247670746e+01,
+6.391304348e+07,-8.274272156e+01,
+6.413043478e+07,-8.297682190e+01,
+6.434782609e+07,-8.283022308e+01,
+6.456521739e+07,-8.291860199e+01,
+6.478260870e+07,-8.295533752e+01,
+6.500000000e+07,-8.274484253e+01,
+6.521739130e+07,-8.294759369e+01,
+6.543478261e+07,-8.339940643e+01,
+6.565217391e+07,-8.358703613e+01,
+6.586956522e+07,-8.413091278e+01,
+6.608695652e+07,-8.454114532e+01,
+6.630434783e+07,-8.473187256e+01,
+6.652173913e+07,-8.487202454e+01,
+6.673913043e+07,-8.493519592e+01,
+6.695652174e+07,-8.496833801e+01,
+6.717391304e+07,-8.508439636e+01,
+6.739130435e+07,-8.481619263e+01,
+6.760869565e+07,-8.516941071e+01,
+6.782608696e+07,-8.518559265e+01,
+6.804347826e+07,-8.511391449e+01,
+6.826086957e+07,-8.544488525e+01,
+6.847826087e+07,-8.529427338e+01,
+6.869565217e+07,-8.531963348e+01,
+6.891304348e+07,-8.567565155e+01,
+6.913043478e+07,-8.526139069e+01,
+6.934782609e+07,-8.512758636e+01,
+6.956521739e+07,-8.433200073e+01,
+6.978260870e+07,-8.380483246e+01,
+7.000000000e+07,-8.303514099e+01,
+7.021739130e+07,-8.316727448e+01,
+7.043478261e+07,-8.368050385e+01,
+7.065217391e+07,-8.455249023e+01,
+7.086956522e+07,-8.551094818e+01,
+7.108695652e+07,-8.608184814e+01,
+7.130434783e+07,-8.619920349e+01,
+7.152173913e+07,-8.618901825e+01,
+7.173913043e+07,-8.631349182e+01,
+7.195652174e+07,-8.655828857e+01,
+7.217391304e+07,-8.662417603e+01,
+7.239130435e+07,-8.666780853e+01,
+7.260869565e+07,-8.684686279e+01,
+7.282608696e+07,-8.669033813e+01,
+7.304347826e+07,-8.698109436e+01,
+7.326086957e+07,-8.694538879e+01,
+7.347826087e+07,-8.702523041e+01,
+7.369565217e+07,-8.712892151e+01,
+7.391304348e+07,-8.726222229e+01,
+7.413043478e+07,-8.711987305e+01,
+7.434782609e+07,-8.752054596e+01,
+7.456521739e+07,-8.740625000e+01,
+7.478260870e+07,-8.752838898e+01,
+7.500000000e+07,-8.748457336e+01,
+7.521739130e+07,-8.738577271e+01,
+7.543478261e+07,-8.728249359e+01,
+7.565217391e+07,-8.757061005e+01,
+7.586956522e+07,-8.739419556e+01,
+7.608695652e+07,-8.741337585e+01,
+7.630434783e+07,-8.750061798e+01,
+7.652173913e+07,-8.738055420e+01,
+7.673913043e+07,-8.750291443e+01,
+7.695652174e+07,-8.733232117e+01,
+7.717391304e+07,-8.707942963e+01,
+7.739130435e+07,-8.700057220e+01,
+7.760869565e+07,-8.724652863e+01,
+7.782608696e+07,-8.722393036e+01,
+7.804347826e+07,-8.712239075e+01,
+7.826086957e+07,-8.708554840e+01,
+7.847826087e+07,-8.727766418e+01,
+7.869565217e+07,-8.724031067e+01,
+7.891304348e+07,-8.703263092e+01,
+7.913043478e+07,-8.714685059e+01,
+7.934782609e+07,-8.695730591e+01,
+7.956521739e+07,-8.712148285e+01,
+7.978260870e+07,-8.683293152e+01,
+8.000000000e+07,-8.684787750e+01,
+8.021739130e+07,-8.712297058e+01,
+8.043478261e+07,-8.685410309e+01,
+8.065217391e+07,-8.697608948e+01,
+8.086956522e+07,-8.691645813e+01,
+8.108695652e+07,-8.730725861e+01,
+8.130434783e+07,-8.687626648e+01,
+8.152173913e+07,-8.697447968e+01,
+8.173913043e+07,-8.732258606e+01,
+8.195652174e+07,-8.732536316e+01,
+8.217391304e+07,-8.715950012e+01,
+8.239130435e+07,-8.727776337e+01,
+8.260869565e+07,-8.720611572e+01,
+8.282608696e+07,-8.734584808e+01,
+8.304347826e+07,-8.729380035e+01,
+8.326086957e+07,-8.730122375e+01,
+8.347826087e+07,-8.715863037e+01,
+8.369565217e+07,-8.742704773e+01,
+8.391304348e+07,-8.739257813e+01,
+8.413043478e+07,-8.755407715e+01,
+8.434782609e+07,-8.735177612e+01,
+8.456521739e+07,-8.743918610e+01,
+8.478260870e+07,-8.740636444e+01,
+8.500000000e+07,-8.720320892e+01,
+8.521739130e+07,-8.761120605e+01,
+8.543478261e+07,-8.759724426e+01,
+8.565217391e+07,-8.759774780e+01,
+8.586956522e+07,-8.755561066e+01,
+8.608695652e+07,-8.754029083e+01,
+8.630434783e+07,-8.767050934e+01,
+8.652173913e+07,-8.750508118e+01,
+8.673913043e+07,-8.789158630e+01,
+8.695652174e+07,-8.752818298e+01,
+8.717391304e+07,-8.757299042e+01,
+8.739130435e+07,-8.762492371e+01,
+8.760869565e+07,-8.760877991e+01,
+8.782608696e+07,-8.770372009e+01,
+8.804347826e+07,-8.734964752e+01,
+8.826086957e+07,-8.629409027e+01,
+8.847826087e+07,-8.489649963e+01,
+8.869565217e+07,-8.320002747e+01,
+8.891304348e+07,-8.203529358e+01,
+8.913043478e+07,-8.170214844e+01,
+8.934782609e+07,-8.182366180e+01,
+8.956521739e+07,-8.174738312e+01,
+8.978260870e+07,-8.160485077e+01,
+9.000000000e+07,-8.153593445e+01,
+9.021739130e+07,-8.256634521e+01,
+9.043478261e+07,-8.365799713e+01,
+9.065217391e+07,-8.472230530e+01,
+9.086956522e+07,-8.528997803e+01,
+9.108695652e+07,-8.642166138e+01,
+9.130434783e+07,-8.721138000e+01,
+9.152173913e+07,-8.769261932e+01,
+9.173913043e+07,-8.773853302e+01,
+9.195652174e+07,-8.771852112e+01,
+9.217391304e+07,-8.714007568e+01,
+9.239130435e+07,-8.731608582e+01,
+9.260869565e+07,-8.771414948e+01,
+9.282608696e+07,-8.786327362e+01,
+9.304347826e+07,-8.827690887e+01,
+9.326086957e+07,-8.841313171e+01,
+9.347826087e+07,-8.835328674e+01,
+9.369565217e+07,-8.824999237e+01,
+9.391304348e+07,-8.820748138e+01,
+9.413043478e+07,-8.764361572e+01,
+9.434782609e+07,-8.702337646e+01,
+9.456521739e+07,-8.648670959e+01,
+9.478260870e+07,-8.583235931e+01,
+9.500000000e+07,-8.603254700e+01,
+9.521739130e+07,-8.650355530e+01,
+9.543478261e+07,-8.743904877e+01,
+9.565217391e+07,-8.791775513e+01,
+9.586956522e+07,-8.812272644e+01,
+9.608695652e+07,-8.861759186e+01,
+9.630434783e+07,-8.811903381e+01,
+9.652173913e+07,-8.853471375e+01,
+9.673913043e+07,-8.832975769e+01,
+9.695652174e+07,-8.876837158e+01,
+9.717391304e+07,-8.835883331e+01,
+9.739130435e+07,-8.858675385e+01,
+9.760869565e+07,-8.872168732e+01,
+9.782608696e+07,-8.870457458e+01,
+9.804347826e+07,-8.854612732e+01,
+9.826086957e+07,-8.849192047e+01,
+9.847826087e+07,-8.815425110e+01,
+9.869565217e+07,-8.783831787e+01,
+9.891304348e+07,-8.761070251e+01,
+9.913043478e+07,-8.756129456e+01,
+9.934782609e+07,-8.762881470e+01,
+9.956521739e+07,-8.802882385e+01,
+9.978260870e+07,-8.824633789e+01,
+1.000000000e+08,-8.857062531e+01,
