Machine Module,N9343C,CN0605A298
MCU Version,A.06.27
DSP Version,A.05.02.02 SA
FPGA Version,A.02.80
04:16:32 07.09.2020
Y Axis Scale,LOG
Y Axis Unit,dBm
Impedance,50
Number of Points,461
Sweep Time(s),1.005100,MAN
Start Frequency,+0.000000000e+00
Stop Frequency,+1.000000000e+08
Frequency Offset,+0.000000000e+00
Average Type,Log Pwr
RBW,+1.000000000e+06,MAN
VBW,+1.000000000e+06,AUTO
Sweep Type,Continuous
Sweep Mode,Sweep
Speed,Fast
PreAmp State,OFF
Ref Level,-5.000000000e+01
Attenuation,0,MAN
Ref Level Offset,+0.000000000e+00
X Axis Units,Hz
HiSensitive,OFF
Trigger Source,FreeRun
Trigger Level,+0.000000000e+00
Trigger Slope,RISE
Trigger Delay,+0.000000000e+00,OFF
Gate Sweep,OFF
Gate View,OFF
Gate Delay,+2.280000000e-03
Gate Length,+8.400000000e-04
Gate Source,External
Burst Level,-2.000000000e+01
Burst Trigger Slope,Rise
Timer Period,+3.120000000e-03
Timer Offset,+0.000000000e+00
Sync Source,Off
Apply Corrections,OFF
Antenna Unit,OFF
Correction1,Off
Correction2,Off
Correction3,Off
Correction4,Off
Marker Information
Marker,Trace,Type,X Axis,Amplitude
M1,1,Frequency,5.00 MHz,-75.52 dBm
M2,1,Frequency,10.00 MHz,-73.14 dBm
M3,1,Frequency,20.00 MHz,-74.94 dBm
M4,1,Frequency,30.00 MHz,-75.17 dBm
M5,1,Frequency,40.00 MHz,-75.81 dBm
M6,1,Frequency,50.00 MHz,-78.11 dBm
CISPR Filter,Normal RBW,Dwell Time(s),0.500000,AUTO
Trace Math,Off
Trace Math By,Log Power
Trace Variable A,Trace1
Trace Variable B,Trace2
Trace Variable C,Trace3
Trace Name,Trace1,
Trace Count,20,
Trace Type,Clear Write,
Trace Detector,Average,
Trace Data
+0.000000000e+00,-1.155088615e+01,
+2.173913043e+05,-2.687550354e+01,
+4.347826087e+05,-2.953756714e+01,
+6.521739130e+05,-3.256302643e+01,
+8.695652174e+05,-3.665027237e+01,
+1.086956522e+06,-4.181516647e+01,
+1.304347826e+06,-4.805918503e+01,
+1.521739130e+06,-5.551284027e+01,
+1.739130435e+06,-6.396139526e+01,
+1.956521739e+06,-7.077741241e+01,
+2.173913043e+06,-7.400723267e+01,
+2.391304348e+06,-7.565211487e+01,
+2.608695652e+06,-7.623653412e+01,
+2.826086957e+06,-7.647238159e+01,
+3.043478261e+06,-7.628941345e+01,
+3.260869565e+06,-7.611484528e+01,
+3.478260870e+06,-7.625236511e+01,
+3.695652174e+06,-7.596235657e+01,
+3.913043478e+06,-7.610163879e+01,
+4.130434783e+06,-7.600572205e+01,
+4.347826087e+06,-7.563269806e+01,
+4.565217391e+06,-7.555893707e+01,
+4.782608696e+06,-7.580372620e+01,
+5.000000000e+06,-7.551802826e+01,
+5.217391304e+06,-7.536921692e+01,
+5.434782609e+06,-7.560121918e+01,
+5.652173913e+06,-7.575379944e+01,
+5.869565217e+06,-7.539853668e+01,
+6.086956522e+06,-7.550282288e+01,
+6.304347826e+06,-7.558802795e+01,
+6.521739130e+06,-7.523047638e+01,
+6.739130435e+06,-7.521540070e+01,
+6.956521739e+06,-7.472753143e+01,
+7.173913043e+06,-7.453056335e+01,
+7.391304348e+06,-7.444515991e+01,
+7.608695652e+06,-7.445394135e+01,
+7.826086957e+06,-7.443253326e+01,
+8.043478261e+06,-7.435420990e+01,
+8.260869565e+06,-7.411568451e+01,
+8.478260870e+06,-7.424309540e+01,
+8.695652174e+06,-7.393305969e+01,
+8.913043478e+06,-7.359761047e+01,
+9.130434783e+06,-7.364299011e+01,
+9.347826087e+06,-7.344758606e+01,
+9.565217391e+06,-7.339328003e+01,
+9.782608696e+06,-7.337953949e+01,
+1.000000000e+07,-7.314064026e+01,
+1.021739130e+07,-7.359379578e+01,
+1.043478261e+07,-7.365680695e+01,
+1.065217391e+07,-7.330560303e+01,
+1.086956522e+07,-7.357315826e+01,
+1.108695652e+07,-7.349179077e+01,
+1.130434783e+07,-7.344700623e+01,
+1.152173913e+07,-7.318251038e+01,
+1.173913043e+07,-7.339368439e+01,
+1.195652174e+07,-7.344977570e+01,
+1.217391304e+07,-7.403254700e+01,
+1.239130435e+07,-7.396871948e+01,
+1.260869565e+07,-7.424640656e+01,
+1.282608696e+07,-7.439845276e+01,
+1.304347826e+07,-7.455705261e+01,
+1.326086957e+07,-7.474501038e+01,
+1.347826087e+07,-7.477663422e+01,
+1.369565217e+07,-7.470465851e+01,
+1.391304348e+07,-7.501209259e+01,
+1.413043478e+07,-7.484852600e+01,
+1.434782609e+07,-7.494641876e+01,
+1.456521739e+07,-7.492231750e+01,
+1.478260870e+07,-7.483912659e+01,
+1.500000000e+07,-7.528981018e+01,
+1.521739130e+07,-7.501415253e+01,
+1.543478261e+07,-7.476435089e+01,
+1.565217391e+07,-7.497438049e+01,
+1.586956522e+07,-7.480483246e+01,
+1.608695652e+07,-7.498027802e+01,
+1.630434783e+07,-7.471028137e+01,
+1.652173913e+07,-7.483992767e+01,
+1.673913043e+07,-7.495812988e+01,
+1.695652174e+07,-7.501798248e+01,
+1.717391304e+07,-7.477471161e+01,
+1.739130435e+07,-7.483033752e+01,
+1.760869565e+07,-7.485606384e+01,
+1.782608696e+07,-7.496250916e+01,
+1.804347826e+07,-7.500371552e+01,
+1.826086957e+07,-7.490448761e+01,
+1.847826087e+07,-7.480570221e+01,
+1.869565217e+07,-7.489186096e+01,
+1.891304348e+07,-7.501934814e+01,
+1.913043478e+07,-7.522626495e+01,
+1.934782609e+07,-7.498384857e+01,
+1.956521739e+07,-7.500066376e+01,
+1.978260870e+07,-7.489064026e+01,
+2.000000000e+07,-7.493685913e+01,
+2.021739130e+07,-7.467658997e+01,
+2.043478261e+07,-7.427445984e+01,
+2.065217391e+07,-7.393516541e+01,
+2.086956522e+07,-7.386506653e+01,
+2.108695652e+07,-7.363228607e+01,
+2.130434783e+07,-7.388807678e+01,
+2.152173913e+07,-7.361730194e+01,
+2.173913043e+07,-7.395762634e+01,
+2.195652174e+07,-7.384046936e+01,
+2.217391304e+07,-7.444953918e+01,
+2.239130435e+07,-7.452778625e+01,
+2.260869565e+07,-7.447290802e+01,
+2.282608696e+07,-7.445043945e+01,
+2.304347826e+07,-7.497142029e+01,
+2.326086957e+07,-7.489879608e+01,
+2.347826087e+07,-7.488123322e+01,
+2.369565217e+07,-7.512849426e+01,
+2.391304348e+07,-7.514083099e+01,
+2.413043478e+07,-7.507077789e+01,
+2.434782609e+07,-7.513923645e+01,
+2.456521739e+07,-7.517443848e+01,
+2.478260870e+07,-7.523185730e+01,
+2.500000000e+07,-7.531649780e+01,
+2.521739130e+07,-7.533766937e+01,
+2.543478261e+07,-7.511668396e+01,
+2.565217391e+07,-7.506190491e+01,
+2.586956522e+07,-7.519328308e+01,
+2.608695652e+07,-7.530358887e+01,
+2.630434783e+07,-7.494025421e+01,
+2.652173913e+07,-7.508076477e+01,
+2.673913043e+07,-7.487064362e+01,
+2.695652174e+07,-7.510982513e+01,
+2.717391304e+07,-7.507371521e+01,
+2.739130435e+07,-7.493283081e+01,
+2.760869565e+07,-7.491078186e+01,
+2.782608696e+07,-7.499617767e+01,
+2.804347826e+07,-7.514450073e+01,
+2.826086957e+07,-7.509748840e+01,
+2.847826087e+07,-7.492742157e+01,
+2.869565217e+07,-7.510547638e+01,
+2.891304348e+07,-7.527763367e+01,
+2.913043478e+07,-7.492856598e+01,
+2.934782609e+07,-7.511177063e+01,
+2.956521739e+07,-7.524443054e+01,
+2.978260870e+07,-7.521418762e+01,
+3.000000000e+07,-7.517277527e+01,
+3.021739130e+07,-7.522508240e+01,
+3.043478261e+07,-7.530404663e+01,
+3.065217391e+07,-7.526799011e+01,
+3.086956522e+07,-7.541652679e+01,
+3.108695652e+07,-7.532700348e+01,
+3.130434783e+07,-7.528358459e+01,
+3.152173913e+07,-7.535133362e+01,
+3.173913043e+07,-7.550126648e+01,
+3.195652174e+07,-7.550962067e+01,
+3.217391304e+07,-7.554007721e+01,
+3.239130435e+07,-7.552680969e+01,
+3.260869565e+07,-7.558960724e+01,
+3.282608696e+07,-7.523986053e+01,
+3.304347826e+07,-7.544741821e+01,
+3.326086957e+07,-7.544786835e+01,
+3.347826087e+07,-7.544650269e+01,
+3.369565217e+07,-7.522612000e+01,
+3.391304348e+07,-7.523854065e+01,
+3.413043478e+07,-7.527909851e+01,
+3.434782609e+07,-7.508950043e+01,
+3.456521739e+07,-7.536721039e+01,
+3.478260870e+07,-7.539961243e+01,
+3.500000000e+07,-7.536470032e+01,
+3.521739130e+07,-7.499608612e+01,
+3.543478261e+07,-7.517723083e+01,
+3.565217391e+07,-7.520657349e+01,
+3.586956522e+07,-7.535331726e+01,
+3.608695652e+07,-7.556358337e+01,
+3.630434783e+07,-7.529597473e+01,
+3.652173913e+07,-7.517637634e+01,
+3.673913043e+07,-7.556945801e+01,
+3.695652174e+07,-7.578434753e+01,
+3.717391304e+07,-7.568379211e+01,
+3.739130435e+07,-7.573386383e+01,
+3.760869565e+07,-7.590547180e+01,
+3.782608696e+07,-7.574180603e+01,
+3.804347826e+07,-7.580409241e+01,
+3.826086957e+07,-7.579014587e+01,
+3.847826087e+07,-7.572645569e+01,
+3.869565217e+07,-7.569197845e+01,
+3.891304348e+07,-7.559046936e+01,
+3.913043478e+07,-7.562283325e+01,
+3.934782609e+07,-7.577310181e+01,
+3.956521739e+07,-7.560265350e+01,
+3.978260870e+07,-7.575962830e+01,
+4.000000000e+07,-7.581062317e+01,
+4.021739130e+07,-7.575913239e+01,
+4.043478261e+07,-7.581674957e+01,
+4.065217391e+07,-7.572911835e+01,
+4.086956522e+07,-7.599693298e+01,
+4.108695652e+07,-7.581170654e+01,
+4.130434783e+07,-7.603246307e+01,
+4.152173913e+07,-7.605508423e+01,
+4.173913043e+07,-7.600914001e+01,
+4.195652174e+07,-7.597773743e+01,
+4.217391304e+07,-7.612968445e+01,
+4.239130435e+07,-7.617698669e+01,
+4.260869565e+07,-7.634333801e+01,
+4.282608696e+07,-7.626839447e+01,
+4.304347826e+07,-7.633743286e+01,
+4.326086957e+07,-7.614763641e+01,
+4.347826087e+07,-7.636798859e+01,
+4.369565217e+07,-7.636961365e+01,
+4.391304348e+07,-7.653121185e+01,
+4.413043478e+07,-7.650272369e+01,
+4.434782609e+07,-7.634442139e+01,
+4.456521739e+07,-7.662123108e+01,
+4.478260870e+07,-7.674621582e+01,
+4.500000000e+07,-7.684642792e+01,
+4.521739130e+07,-7.681488800e+01,
+4.543478261e+07,-7.675485992e+01,
+4.565217391e+07,-7.681039429e+01,
+4.586956522e+07,-7.695865631e+01,
+4.608695652e+07,-7.687565613e+01,
+4.630434783e+07,-7.688567352e+01,
+4.652173913e+07,-7.714604950e+01,
+4.673913043e+07,-7.712153625e+01,
+4.695652174e+07,-7.717784119e+01,
+4.717391304e+07,-7.747202301e+01,
+4.739130435e+07,-7.750630188e+01,
+4.760869565e+07,-7.741452789e+01,
+4.782608696e+07,-7.742477417e+01,
+4.804347826e+07,-7.758686829e+01,
+4.826086957e+07,-7.772553253e+01,
+4.847826087e+07,-7.762430573e+01,
+4.869565217e+07,-7.790641022e+01,
+4.891304348e+07,-7.776823425e+01,
+4.913043478e+07,-7.805226898e+01,
+4.934782609e+07,-7.810699463e+01,
+4.956521739e+07,-7.809089661e+01,
+4.978260870e+07,-7.803826904e+01,
+5.000000000e+07,-7.810925293e+01,
+5.021739130e+07,-7.825816345e+01,
+5.043478261e+07,-7.811267090e+01,
+5.065217391e+07,-7.833264160e+01,
+5.086956522e+07,-7.850025940e+01,
+5.108695652e+07,-7.844282532e+01,
+5.130434783e+07,-7.889502716e+01,
+5.152173913e+07,-7.866851807e+01,
+5.173913043e+07,-7.900724792e+01,
+5.195652174e+07,-7.931330872e+01,
+5.217391304e+07,-7.930593109e+01,
+5.239130435e+07,-7.947434998e+01,
+5.260869565e+07,-7.965570831e+01,
+5.282608696e+07,-7.991899872e+01,
+5.304347826e+07,-7.970785522e+01,
+5.326086957e+07,-8.011100769e+01,
+5.347826087e+07,-8.001988220e+01,
+5.369565217e+07,-8.007109833e+01,
+5.391304348e+07,-8.036859894e+01,
+5.413043478e+07,-8.059411621e+01,
+5.434782609e+07,-8.066923523e+01,
+5.456521739e+07,-8.068261719e+01,
+5.478260870e+07,-8.086584473e+01,
+5.500000000e+07,-8.103199768e+01,
+5.521739130e+07,-8.100926208e+01,
+5.543478261e+07,-8.128231049e+01,
+5.565217391e+07,-8.137377167e+01,
+5.586956522e+07,-8.150352478e+01,
+5.608695652e+07,-8.157817841e+01,
+5.630434783e+07,-8.201179504e+01,
+5.652173913e+07,-8.175445557e+01,
+5.673913043e+07,-8.179580688e+01,
+5.695652174e+07,-8.206460571e+01,
+5.717391304e+07,-8.216642761e+01,
+5.739130435e+07,-8.240911865e+01,
+5.760869565e+07,-8.238248444e+01,
+5.782608696e+07,-8.244618225e+01,
+5.804347826e+07,-8.259738922e+01,
+5.826086957e+07,-8.271330261e+01,
+5.847826087e+07,-8.284704590e+01,
+5.869565217e+07,-8.290650177e+01,
+5.891304348e+07,-8.296577454e+01,
+5.913043478e+07,-8.304814148e+01,
+5.934782609e+07,-8.311843872e+01,
+5.956521739e+07,-8.326533508e+01,
+5.978260870e+07,-8.326119995e+01,
+6.000000000e+07,-8.329112244e+01,
+6.021739130e+07,-8.357393646e+01,
+6.043478261e+07,-8.361402893e+01,
+6.065217391e+07,-8.371920013e+01,
+6.086956522e+07,-8.371634674e+01,
+6.108695652e+07,-8.386497498e+01,
+6.130434783e+07,-8.369423676e+01,
+6.152173913e+07,-8.376629639e+01,
+6.173913043e+07,-8.401777649e+01,
+6.195652174e+07,-8.407453918e+01,
+6.217391304e+07,-8.449630737e+01,
+6.239130435e+07,-8.439527893e+01,
+6.260869565e+07,-8.421221924e+01,
+6.282608696e+07,-8.453268433e+01,
+6.304347826e+07,-8.476773834e+01,
+6.326086957e+07,-8.465107727e+01,
+6.347826087e+07,-8.480799103e+01,
+6.369565217e+07,-8.480586243e+01,
+6.391304348e+07,-8.492873383e+01,
+6.413043478e+07,-8.509410858e+01,
+6.434782609e+07,-8.521449280e+01,
+6.456521739e+07,-8.528024292e+01,
+6.478260870e+07,-8.517147827e+01,
+6.500000000e+07,-8.545056152e+01,
+6.521739130e+07,-8.546771240e+01,
+6.543478261e+07,-8.568769836e+01,
+6.565217391e+07,-8.558619690e+01,
+6.586956522e+07,-8.592015839e+01,
+6.608695652e+07,-8.609857178e+01,
+6.630434783e+07,-8.617474365e+01,
+6.652173913e+07,-8.632840729e+01,
+6.673913043e+07,-8.624150085e+01,
+6.695652174e+07,-8.654331207e+01,
+6.717391304e+07,-8.647499084e+01,
+6.739130435e+07,-8.659873962e+01,
+6.760869565e+07,-8.641432953e+01,
+6.782608696e+07,-8.669499207e+01,
+6.804347826e+07,-8.660919189e+01,
+6.826086957e+07,-8.665135956e+01,
+6.847826087e+07,-8.689035797e+01,
+6.869565217e+07,-8.672401428e+01,
+6.891304348e+07,-8.676503754e+01,
+6.913043478e+07,-8.708802795e+01,
+6.934782609e+07,-8.695043182e+01,
+6.956521739e+07,-8.682083130e+01,
+6.978260870e+07,-8.681952667e+01,
+7.000000000e+07,-8.673573303e+01,
+7.021739130e+07,-8.689347076e+01,
+7.043478261e+07,-8.694635773e+01,
+7.065217391e+07,-8.709049988e+01,
+7.086956522e+07,-8.688608551e+01,
+7.108695652e+07,-8.733526611e+01,
+7.130434783e+07,-8.723079681e+01,
+7.152173913e+07,-8.730864716e+01,
+7.173913043e+07,-8.756748962e+01,
+7.195652174e+07,-8.749297333e+01,
+7.217391304e+07,-8.734319305e+01,
+7.239130435e+07,-8.742829895e+01,
+7.260869565e+07,-8.774208832e+01,
+7.282608696e+07,-8.769322968e+01,
+7.304347826e+07,-8.774801636e+01,
+7.326086957e+07,-8.780427551e+01,
+7.347826087e+07,-8.787580109e+01,
+7.369565217e+07,-8.804234314e+01,
+7.391304348e+07,-8.817617035e+01,
+7.413043478e+07,-8.802864075e+01,
+7.434782609e+07,-8.809986877e+01,
+7.456521739e+07,-8.798274231e+01,
+7.478260870e+07,-8.808698273e+01,
+7.500000000e+07,-8.799255371e+01,
+7.521739130e+07,-8.818852997e+01,
+7.543478261e+07,-8.808725739e+01,
+7.565217391e+07,-8.836891174e+01,
+7.586956522e+07,-8.841632843e+01,
+7.608695652e+07,-8.846353912e+01,
+7.630434783e+07,-8.840174103e+01,
+7.652173913e+07,-8.825229645e+01,
+7.673913043e+07,-8.819541931e+01,
+7.695652174e+07,-8.831537628e+01,
+7.717391304e+07,-8.835171509e+01,
+7.739130435e+07,-8.816988373e+01,
+7.760869565e+07,-8.821408081e+01,
+7.782608696e+07,-8.827278137e+01,
+7.804347826e+07,-8.834455109e+01,
+7.826086957e+07,-8.846220398e+01,
+7.847826087e+07,-8.815069580e+01,
+7.869565217e+07,-8.805004883e+01,
+7.891304348e+07,-8.819541931e+01,
+7.913043478e+07,-8.826673889e+01,
+7.934782609e+07,-8.817948151e+01,
+7.956521739e+07,-8.842798615e+01,
+7.978260870e+07,-8.836604309e+01,
+8.000000000e+07,-8.816015625e+01,
+8.021739130e+07,-8.809541321e+01,
+8.043478261e+07,-8.843230438e+01,
+8.065217391e+07,-8.811385345e+01,
+8.086956522e+07,-8.848737335e+01,
+8.108695652e+07,-8.829665375e+01,
+8.130434783e+07,-8.826852417e+01,
+8.152173913e+07,-8.826330566e+01,
+8.173913043e+07,-8.822532654e+01,
+8.195652174e+07,-8.829814911e+01,
+8.217391304e+07,-8.803002930e+01,
+8.239130435e+07,-8.820413971e+01,
+8.260869565e+07,-8.819203949e+01,
+8.282608696e+07,-8.849116516e+01,
+8.304347826e+07,-8.826748657e+01,
+8.326086957e+07,-8.808679962e+01,
+8.347826087e+07,-8.814486694e+01,
+8.369565217e+07,-8.812473297e+01,
+8.391304348e+07,-8.836720276e+01,
+8.413043478e+07,-8.831557465e+01,
+8.434782609e+07,-8.816981506e+01,
+8.456521739e+07,-8.818930054e+01,
+8.478260870e+07,-8.818023682e+01,
+8.500000000e+07,-8.841184998e+01,
+8.521739130e+07,-8.813398743e+01,
+8.543478261e+07,-8.820225525e+01,
+8.565217391e+07,-8.833296204e+01,
+8.586956522e+07,-8.833911896e+01,
+8.608695652e+07,-8.842703247e+01,
+8.630434783e+07,-8.824351501e+01,
+8.652173913e+07,-8.842366791e+01,
+8.673913043e+07,-8.845002747e+01,
+8.695652174e+07,-8.845649719e+01,
+8.717391304e+07,-8.851228333e+01,
+8.739130435e+07,-8.849887085e+01,
+8.760869565e+07,-8.841583252e+01,
+8.782608696e+07,-8.843701935e+01,
+8.804347826e+07,-8.803821564e+01,
+8.826086957e+07,-8.718000793e+01,
+8.847826087e+07,-8.587084961e+01,
+8.869565217e+07,-8.398178101e+01,
+8.891304348e+07,-8.283997345e+01,
+8.913043478e+07,-8.248142242e+01,
+8.934782609e+07,-8.238027191e+01,
+8.956521739e+07,-8.194037628e+01,
+8.978260870e+07,-8.161860657e+01,
+9.000000000e+07,-8.193149567e+01,
+9.021739130e+07,-8.281726074e+01,
+9.043478261e+07,-8.442112732e+01,
+9.065217391e+07,-8.554624939e+01,
+9.086956522e+07,-8.642546844e+01,
+9.108695652e+07,-8.745623779e+01,
+9.130434783e+07,-8.792290497e+01,
+9.152173913e+07,-8.871962738e+01,
+9.173913043e+07,-8.859583282e+01,
+9.195652174e+07,-8.881089020e+01,
+9.217391304e+07,-8.865074921e+01,
+9.239130435e+07,-8.877008057e+01,
+9.260869565e+07,-8.889062500e+01,
+9.282608696e+07,-8.874621582e+01,
+9.304347826e+07,-8.893576050e+01,
+9.326086957e+07,-8.900010681e+01,
+9.347826087e+07,-8.920049286e+01,
+9.369565217e+07,-8.891833496e+01,
+9.391304348e+07,-8.887187195e+01,
+9.413043478e+07,-8.892082977e+01,
+9.434782609e+07,-8.901380157e+01,
+9.456521739e+07,-8.865792084e+01,
+9.478260870e+07,-8.874265289e+01,
+9.500000000e+07,-8.861095428e+01,
+9.521739130e+07,-8.874582672e+01,
+9.543478261e+07,-8.889961243e+01,
+9.565217391e+07,-8.901060486e+01,
+9.586956522e+07,-8.898429871e+01,
+9.608695652e+07,-8.897137451e+01,
+9.630434783e+07,-8.923423004e+01,
+9.652173913e+07,-8.931694031e+01,
+9.673913043e+07,-8.928752899e+01,
+9.695652174e+07,-8.908471680e+01,
+9.717391304e+07,-8.914700317e+01,
+9.739130435e+07,-8.931783295e+01,
+9.760869565e+07,-8.911896515e+01,
+9.782608696e+07,-8.931282043e+01,
+9.804347826e+07,-8.917558289e+01,
+9.826086957e+07,-8.865729523e+01,
+9.847826087e+07,-8.810168457e+01,
+9.869565217e+07,-8.740492249e+01,
+9.891304348e+07,-8.675221252e+01,
+9.913043478e+07,-8.688150024e+01,
+9.934782609e+07,-8.709954834e+01,
+9.956521739e+07,-8.792273712e+01,
+9.978260870e+07,-8.837104034e+01,
+1.000000000e+08,-8.861339569e+01,
